* 4:54pm Jan 17  2017
* a55 vs a1
* 1 2 2 2 2 2 5 1 2 2 2 2 2 5
* X X X X
* X X X X
* X X X X
* X X X X
* X X X X
* X X X X
* X X X X
* X X X X
* first 1
* time 900
* 1. a6(k) b7(G)
* 2. a5(g) d8(m)
* 3. a4(C) a4-a6
* 4. a5-a4 c2(R)
* 5. a3(p) b6(P)
* 6. a4-a5 a8(P)
* 7. a5-a6 c5(r)
* 8. a6-a5 c3(G)
* 9. a3-a4 c4(n)
* 10. d7(p) c3-c4
* 11. c8(c) c2-c3
* 12. d5(P) c4-c5
* 13. a4-a3 b8(N)
* 14. d4(N) b5(M)
* 15. a2(p) d3(r)
* 16. d2(n) c3-d3
* 17. d1(p) d6(R)
* 18. b4(m) b5-b4
* 19. c6(P) d3-d2
* 20. a7(g) b7-a7
* 21. c8-c6 d6-c6
* 22. b1(c) a1(C)
* 23. b3(P) d2-d1
* 24. b1-d1 b2(K)
* 25. a2-b2 a1-a5
* 26. b2-b3 c7(p)
* 27. c1(M) c1-d1
* 28. a3-a4 b4-b3
* 29. a4-a3 b3-a3
* 30. c7-b7 b6-b7
* 31. d8-c8 d1-d2
* 32. c8-b8 d2-d1
* 33. d7-d8 a5-b5
* 34. b8-c8 d1-c1
* 35. c8-c7 c1-b1
* 36. c7-d7 b1-c1
* 37. d7-d6 c1-d1
* 38. d8-d7 d1-d2
* 39. d7-c7 c6-c7
* 40. d6-d7 d2-d3
* 41. d7-d6 a3-b3
* 42. d6-d7 b3-c3
* 43. d7-d6 c3-c2
* 44. d6-d5 b5-d5
* a1 wins
* Comment 0 0
0. 1484643290640
1. 1484643290828
2. 1484643291015
3. 1484643291203
4. 1484643291406
5. 1484643291593
6. 1484643291796
7. 1484643291984
8. 1484643292156
9. 1484643292328
10. 1484643292515
11. 1484643292781
12. 1484643292968
13. 1484643293203
14. 1484643293390
15. 1484643293656
16. 1484643293843
17. 1484643294031
18. 1484643294250
19. 1484643294453
20. 1484643294640
21. 1484643294937
22. 1484643295140
23. 1484643295437
24. 1484643295656
25. 1484643295953
26. 1484643296140
27. 1484643296546
28. 1484643296796
29. 1484643298078
30. 1484643298281
31. 1484643300765
32. 1484643301093
33. 1484643306750
34. 1484643309156
35. 1484643321390
36. 1484643331328
37. 1484643343437
38. 1484643350875
39. 1484643363078
40. 1484643395250
41. 1484643407453
42. 1484643439578
43. 1484643451734
44. 1484643483859
45. 1484643496000
46. 1484643528171
47. 1484643539890
48. 1484643571968
49. 1484643584109
50. 1484643616281
51. 1484643616484
52. 1484643648671
53. 1484643660906
54. 1484643693062
55. 1484643705281
56. 1484643737421
57. 1484643749531
58. 1484643749718
59. 1484643761937
60. 1484643762156
61. 1484643774375
62. 1484643795921
63. 1484643796125
64. 1484643799046
65. 1484643811296
66. 1484643811625
67. 1484643823875
68. 1484643830093
69. 1484643842203
70. 1484643868640
71. 1484643868828
72. 1484643900937
73. 1484643901125
74. 1484643933250
75. 1484643945375
76. 1484643977484
77. 1484643989718
78. 1484644000109
79. 1484644012343
80. 1484644014828
81. 1484644027031
82. 1484644035656
83. 1484644035843
84. 1484644036031
85. 1484644036250
86. 1484644047718
87. 1484644050796
