* 1:51am Jan 17  2017
* a55 vs R05943148
* 1 2 2 2 2 2 5 1 2 2 2 2 2 5
* X X X X
* X X X X
* X X X X
* X X X X
* X X X X
* X X X X
* X X X X
* X X X X
* first 0
* time 900
* 1. b5(R) a2(p)
* 2. a1(R) c8(p)
* 3. a1-a2 c3(g)
* 4. d8(r) c4(c)
* 5. b2(C) d3(p)
* 6. a4(N) c4-a4
* 7. c5(P) c3-c4
* 8. b4(m) d3-c3
* 9. b2-b4
* a55 wins
* Comment 0 0
0. 1484589084218
1. 1484589084375
2. 1484589084562
3. 1484589084750
4. 1484589084937
5. 1484589085421
6. 1484589085593
7. 1484589085750
8. 1484589085921
9. 1484589086093
10. 1484589086265
11. 1484589086468
12. 1484589086640
13. 1484589086953
14. 1484589087140
15. 1484589087281
16. 1484589087468
