* 6:17pm Jan 15  2017
* a55 vs a1
* 1 2 2 2 2 2 5 1 2 2 2 2 2 5
* X X X X
* X X X X
* X X X X
* X X X X
* X X X X
* X X X X
* X X X X
* X X X X
* first 0
* time 900
* 1. b6(C) b3(N)
* 2. b4(P) b2(R)
* 3. b7(m) b7-b6
* 4. a2(P) d1(N)
* 5. b1(g) b1-b2
* 6. a8(p) b2-a2
* 7. d3(G) b6-b7
* 8. c3(P) b7-b6
* 9. c6(P) b6-c6
* 10. d8(p) c6-b6
* 11. b5(R) b6-b5
* 12. a7(c) b5-b4
* 13. a5(r) b4-b5
* 14. c8(r) a2-b2
* 15. d4(n) b2-b3
* 16. d5(n) a3(p)
* 17. d3-d4 b3-c3
* a1 wins
* Comment 0 0
0. 1484475477594
1. 1484475477797
2. 1484475477985
3. 1484475478172
4. 1484475478360
5. 1484475478563
6. 1484475478766
7. 1484475478969
8. 1484475479203
9. 1484475479391
10. 1484475479594
11. 1484475479813
12. 1484475480016
13. 1484475480188
14. 1484475480375
15. 1484475480563
16. 1484475480750
17. 1484475480985
18. 1484475481188
19. 1484475481360
20. 1484475481547
21. 1484475481750
22. 1484475481938
23. 1484475482125
24. 1484475482328
25. 1484475482516
26. 1484475482750
27. 1484475482969
28. 1484475483141
29. 1484475483391
30. 1484475483578
31. 1484475483766
32. 1484475483985
33. 1484475484188
