* 7:18pm Jan 11  2017
* a1 vs a0
* 1 2 2 2 2 2 5 1 2 2 2 2 2 5
* X X X X
* X X X X
* X X X X
* X X X X
* X X X X
* X X X X
* X X X X
* X X X X
* first 1
* time 900
* 1. b6(c) d4(n)
* 2. a5(C) b3(r)
* 3. a6(g) d3(C)
* 4. d4-d3 c6(R)
* 5. d3-d4 d8(p)
* 6. d4-d3 b8(R)
* 7. b6-b8 b2(M)
* 8. d5(P) d6(P)
* 9. d3-d4 a8(p)
* 10. d4-d5 c4(P)
* 11. d5-d4 c7(p)
* 12. d1(P) c5(N)
* 13. b5(m) c1(c)
* 14. b5-c5 d2(p)
* 15. d2-d1 a7(g)
* 16. c5-c6 a3(N)
* 17. b3-a3 a5-a3
* 18. d1-d2 c3(G)
* 19. c1-c3 c2(k)
* 20. c2-b2 d7(G)
* 21. d4-c4 a3-a6
* 22. a7-a6 d7-c7
* 23. c6-d6 a4(K)
* 24. c3-c7 a1(p)
* 25. b4(P) b1(n)
* 26. c4-b4 b7(r)
* 27. c8(m) a2(M)
* 28. b2-a2 a4-a5
* 29. a2-a3 a5-b5
* 30. d6-c6 b5-c5
* 31. c7-c5
* a1 wins
* Comment 0 0
0. 1484133492360
1. 1484133492547
2. 1484133492750
3. 1484133492953
4. 1484133493172
5. 1484133493360
6. 1484133493531
7. 1484133493781
8. 1484133493953
9. 1484133494141
10. 1484133494391
11. 1484133494610
12. 1484133494797
13. 1484133494985
14. 1484133495172
15. 1484133495360
16. 1484133495531
17. 1484133495719
18. 1484133495938
19. 1484133496156
20. 1484133496375
21. 1484133496563
22. 1484133496750
23. 1484133496922
24. 1484133497110
25. 1484133497281
26. 1484133497500
27. 1484133497766
28. 1484133497953
29. 1484133498141
30. 1484133498360
31. 1484133498547
32. 1484133498766
33. 1484133499000
34. 1484133499203
35. 1484133499406
36. 1484133499578
37. 1484133499781
38. 1484133499969
39. 1484133500235
40. 1484133500422
41. 1484133500625
42. 1484133500844
43. 1484133501078
44. 1484133501266
45. 1484133501453
46. 1484133501641
47. 1484133501844
48. 1484133502047
49. 1484133502235
50. 1484133502406
51. 1484133502594
52. 1484133502860
53. 1484133503297
54. 1484133503594
55. 1484133503797
56. 1484133503969
57. 1484133504156
58. 1484133504406
59. 1484133504578
60. 1484133504766
