* 5:50pm Jan 15  2017
* a1 vs a55
* 1 2 2 2 2 2 5 1 2 2 2 2 2 5
* X X X X
* X X X X
* X X X X
* X X X X
* X X X X
* X X X X
* X X X X
* X X X X
* first 1
* time 900
* 1. a4(g) c5(c)
* 2. a6(p) d6(P)
* 3. b2(P) c8(G)
* 4. a8(m) d3(n)
* 5. b8(k) d1(N)
* 6. b8-c8 b5(r)
* 7. c6(P) b6(C)
* 8. b5-b6 b1(N)
* 9. b6-b5 a7(p)
* 10. a8-b8 a1(M)
* 11. a7-a8 d7(P)
* 12. a8-a7 b3(g)
* 13. b3-b2 b7(R)
* 14. b8-b7 d8(m)
* 15. b2-b1 c3(c)
* 16. b1-a1 c7(R)
* 17. a1-b1 c4(G)
* 18. c5-c7 d4(p)
* 19. c7-c4 b4(M)
* 20. c1(r) b4-c4
* 21. c3-c6 d5(p)
* 22. c1-d1 c4-d4
* 23. d2(p) d4-d3
* 24. a5(K) a5-b5
* 25. d5-c5 a3(P)
* 26. c5-b5 c2(C)
* 27. a2(n) c2-c8
* 28. a2-a3 d3-d2
* a55 wins
* Comment 0 0
0. 1484473818235
1. 1484473818438
2. 1484473818625
3. 1484473818828
4. 1484473819047
5. 1484473819235
6. 1484473819422
7. 1484473819641
8. 1484473819860
9. 1484473820031
10. 1484473820250
11. 1484473820469
12. 1484473820641
13. 1484473820813
14. 1484473820985
15. 1484473821156
16. 1484473821360
17. 1484473821578
18. 1484473821781
19. 1484473821969
20. 1484473822125
21. 1484473822313
22. 1484473822516
23. 1484473822688
24. 1484473822875
25. 1484473823094
26. 1484473823281
27. 1484473823485
28. 1484473823688
29. 1484473823860
30. 1484473824063
31. 1484473824281
32. 1484473824469
33. 1484473824688
34. 1484473824875
35. 1484473825063
36. 1484473825235
37. 1484473825469
38. 1484473825688
39. 1484473825875
40. 1484473826063
41. 1484473826266
42. 1484473826469
43. 1484473826672
44. 1484473826860
45. 1484473827047
46. 1484473827266
47. 1484473827578
48. 1484473827766
49. 1484473828063
50. 1484473828235
51. 1484473828547
52. 1484473828719
53. 1484473830891
54. 1484473832078
55. 1484473832953
