* 6:21pm Jan 15  2017
* a55 vs a1
* 1 2 2 2 2 2 5 1 2 2 2 2 2 5
* X X X X
* X X X X
* X X X X
* X X X X
* X X X X
* X X X X
* X X X X
* X X X X
* first 0
* time 900
* 1. c2(M) b5(c)
* 2. a2(R) a8(P)
* 3. d2(n) d8(G)
* 4. c2-d2 a1(p)
* 5. a2-a1 c5(p)
* 6. c3(p) a4(p)
* 7. a1-a2 d6(P)
* 8. a2-a1 c6(g)
* 9. c4(r) c7(G)
* 10. c7-c6 a6(p)
* 11. a1-a2 c1(m)
* 12. a2-a1 d4(N)
* 13. a1-a2 b2(R)
* 14. a2-a1 c8(r)
* 15. a1-a2 d5(k)
* 16. a2-a1 b4(P)
* 17. d6-d5 d3(P)
* 18. b2-a2 a4-b4
* a1 wins
* Comment 0 0
0. 1484475687766
1. 1484475687953
2. 1484475688125
3. 1484475688766
4. 1484475688969
5. 1484475689156
6. 1484475689344
7. 1484475689531
8. 1484475689735
9. 1484475689938
10. 1484475690156
11. 1484475690313
12. 1484475690485
13. 1484475690719
14. 1484475690922
15. 1484475691110
16. 1484475691313
17. 1484475691500
18. 1484475691688
19. 1484475691891
20. 1484475692094
21. 1484475692281
22. 1484475692469
23. 1484475692672
24. 1484475692891
25. 1484475693110
26. 1484475693313
27. 1484475693500
28. 1484475693906
29. 1484475694125
30. 1484475695000
31. 1484475695156
32. 1484475697031
33. 1484475697219
34. 1484475701750
35. 1484475701953
