* 12:19am Jan 16  2017
* a55 vs a1
* 1 2 2 2 2 2 5 1 2 2 2 2 2 5
* X X X X
* X X X X
* X X X X
* X X X X
* X X X X
* X X X X
* X X X X
* X X X X
* first 0
* time 900
* 1. c2(P) a2(k)
* 2. d2(m) d2-c2
* 3. b2(K) a2-b2
* 4. a6(P) c1(r)
* 5. d6(P) a4(g)
* 6. a3(c) c7(p)
* 7. c6(p) c6-d6
* 8. d3(N) b2-a2
* 9. b6(M) c2-d2
* 10. a1(R) a3-a1
* 11. d4(R) c1-c2
* 12. b4(r) d2-d3
* 13. b8(G) a2-a3
* 14. a5(n) a1-a2
* 15. c8(p) a2-b2
* 16. d1(p) d1-c1
* 17. c4(P) d3-d4
* 18. b8-c8 b4-c4
* 19. c8-c7 d4-d3
* 20. c7-c6 a5-a6
* 21. c6-d6 d8(p)
* 22. b6-a6 b7(g)
* 23. d7(c) b7-c7
* 24. c3(m) c1-d1
* 25. a8(M) d1-c1
* 26. a8-b8 a4-a5
* 27. d6-d7 c7-d7
* 28. a7(n) a5-a6
* 29. b3(P) b1(C)
* 30. b1-a1 d5(G)
* 31. b3-a3 b2-b8
* 32. a1-a6 a7-a6
* 33. b5(N) c5(C)
* 34. c5-c3 c2-c3
* 35. a3-b3 c3-b3
* 36. d5-d4 a6-b6
* 37. d4-d3 b6-b5
* 38. d3-d2 c1-b1
* 39. d2-d1 b1-c1
* 40. d1-c1 b3-c3
* 41. c1-d1 c3-d3
* 42. d1-c1 d3-d2
* 43. c1-b1 b8-b1
* a1 wins
* Comment 0 0
0. 1484497156110
1. 1484497156297
2. 1484497156485
3. 1484497156719
4. 1484497156938
5. 1484497157125
6. 1484497157313
7. 1484497157500
8. 1484497157688
9. 1484497157875
10. 1484497158094
11. 1484497158297
12. 1484497158500
13. 1484497158703
14. 1484497158906
15. 1484497159078
16. 1484497159266
17. 1484497159469
18. 1484497159656
19. 1484497159844
20. 1484497160047
21. 1484497160250
22. 1484497160438
23. 1484497160610
24. 1484497160844
25. 1484497161031
26. 1484497161235
27. 1484497161453
28. 1484497161656
29. 1484497161844
30. 1484497162031
31. 1484497162235
32. 1484497162422
33. 1484497162828
34. 1484497163031
35. 1484497163219
36. 1484497163406
37. 1484497163594
38. 1484497163781
39. 1484497163969
40. 1484497164156
41. 1484497164344
42. 1484497164516
43. 1484497164766
44. 1484497164938
45. 1484497165235
46. 1484497165406
47. 1484497165719
48. 1484497165906
49. 1484497166766
50. 1484497166953
51. 1484497167172
52. 1484497168125
53. 1484497168344
54. 1484497168531
55. 1484497170016
56. 1484497170985
57. 1484497174563
58. 1484497174750
59. 1484497174969
60. 1484497187078
61. 1484497187281
62. 1484497194594
63. 1484497206703
64. 1484497206891
65. 1484497219000
66. 1484497231110
67. 1484497243313
68. 1484497255453
69. 1484497267688
70. 1484497270844
71. 1484497283094
72. 1484497295344
73. 1484497295516
74. 1484497295703
75. 1484497297094
76. 1484497297281
77. 1484497297485
78. 1484497297688
79. 1484497297906
80. 1484497298125
81. 1484497298360
82. 1484497298563
83. 1484497298750
84. 1484497298953
85. 1484497299485
