* 12:37am Jan 16  2017
* a55 vs a1
* 1 2 2 2 2 2 5 1 2 2 2 2 2 5
* X X X X
* X X X X
* X X X X
* X X X X
* X X X X
* X X X X
* X X X X
* X X X X
* first 0
* time 900
* 1. c4(P) a1(m)
* 2. b4(p) b4-c4
* 3. c8(P) d5(C)
* 4. d2(p) b5(R)
* 5. a7(c) a8(p)
* 6. d3(p) d8(G)
* 7. d5-d3 b8(P)
* 8. b8-a8 c3(g)
* 9. b1(k) c3-d3
* 10. b5-b4 b6(R)
* 11. b4-c4 c7(N)
* 12. c2(P) d2-c2
* 13. a3(C) b3(g)
* 14. a3-d3 c2-d2
* 15. a5(n) d2-c2
* 16. b2(G) b1-b2
* 17. b7(c) b7-b8
* 18. d4(M) b8-d8
* 19. b6-b5 d8-a8
* 20. b5-a5 a7-a5
* 21. c1(n) b3-c3
* 22. d7(N) c3-c4
* 23. c5(r) c1-b1
* 24. a6(r) c2-c3
* 25. d1(P) b1-c1
* 26. a4(p) a1-b1
* 27. a2(M) b2-a2
* 28. d6(m) d6-d7
* 29. c6(K) d7-c7
* 30. d1-d2 c4-d4
* 31. c6-c7 d4-d3
* 32. c7-c6 c5-d5
* 33. d2-d1 b1-a1
* 34. c6-c5 d5-d4
* 35. c5-d5 c1-d1
* 36. d5-d4 a1-b1
* 37. d4-d3 c3-d3
* 38. c8-d8 b1-c1
* 39. d8-d7 c1-b1
* 40. d7-d6 b1-c1
* 41. d6-d5 c1-b1
* 42. d5-d4 d3-d4
* a1 wins
* Comment 0 0
0. 1484498255813
1. 1484498256000
2. 1484498256235
3. 1484498256453
4. 1484498256688
5. 1484498256891
6. 1484498257094
7. 1484498257297
8. 1484498257531
9. 1484498257750
10. 1484498257969
11. 1484498258172
12. 1484498258375
13. 1484498258610
14. 1484498258844
15. 1484498259063
16. 1484498259297
17. 1484498259516
18. 1484498259766
19. 1484498259969
20. 1484498260188
21. 1484498260406
22. 1484498260610
23. 1484498260860
24. 1484498261063
25. 1484498261281
26. 1484498261500
27. 1484498261719
28. 1484498261953
29. 1484498262156
30. 1484498262375
31. 1484498262719
32. 1484498262922
33. 1484498263172
34. 1484498263375
35. 1484498263610
36. 1484498263828
37. 1484498264031
38. 1484498264250
39. 1484498264469
40. 1484498264672
41. 1484498264906
42. 1484498265110
43. 1484498265328
44. 1484498265563
45. 1484498265781
46. 1484498266656
47. 1484498270266
48. 1484498276250
49. 1484498276453
50. 1484498276672
51. 1484498276875
52. 1484498277078
53. 1484498289203
54. 1484498289406
55. 1484498289656
56. 1484498289860
57. 1484498290063
58. 1484498290266
59. 1484498302516
60. 1484498302735
61. 1484498302938
62. 1484498311360
63. 1484498311578
64. 1484498323813
65. 1484498336047
66. 1484498344031
67. 1484498344250
68. 1484498345781
69. 1484498348828
70. 1484498349360
71. 1484498349547
72. 1484498349766
73. 1484498349985
74. 1484498350203
75. 1484498350531
76. 1484498350750
77. 1484498350953
78. 1484498351188
79. 1484498351422
80. 1484498351641
81. 1484498352297
82. 1484498352547
83. 1484498352766
