* 5:45pm Jan 15  2017
* a55 vs a1
* 1 2 2 2 2 2 5 1 2 2 2 2 2 5
* X X X X
* X X X X
* X X X X
* X X X X
* X X X X
* X X X X
* X X X X
* X X X X
* first 0
* time 900
* 1. d6(M) a8(m)
* 2. a4(r) c8(g)
* 3. a7(p) d1(P)
* 4. c3(n) b5(c)
* 5. d4(R) c2(N)
* 6. c2-c3 d8(K)
* 7. d8-c8 c5(k)
* 8. d3(n) a2(P)
* 9. c3-d3 c1(P)
* 10. b1(C) c4(p)
* 11. c1-c2 d7(r)
* 12. d6-d7 d5(G)
* 13. a1(p) c5-d5
* 14. a6(N) d5-d4
* 15. a2-a1 d4-d3
* 16. b1-c1 d2(C)
* 17. c1-c4 b4(G)
* 18. b4-b5 a5(g)
* 19. c2-c3 b8(p)
* 20. b5-a5 d3-d4
* 21. c4-c5 b8-c8
* 22. a5-a4 b6(c)
* 23. a1-b1 a3(R)
* 24. b1-c1 c7(M)
* 25. c7-c8 b3(p)
* 26. a3-b3 c6(P)
* 27. c1-b1 b2(m)
* 28. b7(P) b2-b3
* 29. b1-c1
* a55 wins
* Comment 0 0
0. 1484473546906
1. 1484473547094
2. 1484473547641
3. 1484473547828
4. 1484473548063
5. 1484473548250
6. 1484473548453
7. 1484473548688
8. 1484473548891
9. 1484473549156
10. 1484473549375
11. 1484473549578
12. 1484473549797
13. 1484473550000
14. 1484473550172
15. 1484473550391
16. 1484473550578
17. 1484473550844
18. 1484473551094
19. 1484473551344
20. 1484473551547
21. 1484473551766
22. 1484473551969
23. 1484473552203
24. 1484473552391
25. 1484473552641
26. 1484473552797
27. 1484473553016
28. 1484473553235
29. 1484473553469
30. 1484473553672
31. 1484473553875
32. 1484473554031
33. 1484473554266
34. 1484473554469
35. 1484473554735
36. 1484473554938
37. 1484473555172
38. 1484473555547
39. 1484473555781
40. 1484473555969
41. 1484473556250
42. 1484473556547
43. 1484473556813
44. 1484473557141
45. 1484473557360
46. 1484473557781
47. 1484473558000
48. 1484473558391
49. 1484473558594
50. 1484473559250
51. 1484473559516
52. 1484473560047
53. 1484473560235
54. 1484473562203
55. 1484473562672
56. 1484473568375
