* 3:42pm Jan 16  2017
* a55 vs a1
* 1 2 2 2 2 2 5 1 2 2 2 2 2 5
* X X X X
* X X X X
* X X X X
* X X X X
* X X X X
* X X X X
* X X X X
* X X X X
* first 1
* time 900
* 1. c3(r) d1(G)
* 2. a6(n) d7(p)
* 3. d2(c) d1-d2
* 4. c7(G) c7-d7
* 5. a4(P) c2(R)
* 6. b5(N) c2-c3
* 7. d8(P) a1(g)
* 8. c8(P) d6(M)
* 9. b3(p) c3-c2
* 10. b7(C) d2-d1
* 11. c6(P) d1-d2
* 12. d5(n) d6-d5
* 13. a2(p) d2-d1
* 14. c5(m) d5-c5
* 15. b8(C) d1-d2
* 16. c4(K) d2-d1
* 17. a3(M) a3-b3
* 18. b4(m) c4-b4
* 19. b2(P) a5(N)
* 20. b1(k) a5-a6
* 21. a2-b2 d3(R)
* 22. c1(p) c2-b2
* 23. b1-b2 d4(g)
* 24. a1-b1 a8(r)
* 25. b1-a1 a7(p)
* 26. b2-b3 b4-b3
* 27. d4-d3 a6-a7
* 28. a8-b8 b6(c)
* 29. b6-b3 b7-b3
* 30. b8-c8 d1-c1
* 31. a1-b1 c1-b1
* 32. d3-d2 b5-b6
* 33. d2-c2 b3-b2
* 34. c2-b2 b1-b2
* 35. c8-b8 b6-a6
* 36. b8-c8 b2-c2
* 37. c8-c7 d7-c7
* a1 wins
* Comment 0 0
0. 1484552574562
1. 1484552574750
2. 1484552574984
3. 1484552575250
4. 1484552575484
5. 1484552575671
6. 1484552575859
7. 1484552576046
8. 1484552576265
9. 1484552576453
10. 1484552576750
11. 1484552576953
12. 1484552577140
13. 1484552577375
14. 1484552577593
15. 1484552577781
16. 1484552577968
17. 1484552578187
18. 1484552578375
19. 1484552578625
20. 1484552578828
21. 1484552579015
22. 1484552579218
23. 1484552579531
24. 1484552579718
25. 1484552580156
26. 1484552580343
27. 1484552581093
28. 1484552581312
29. 1484552581609
30. 1484552581796
31. 1484552582796
32. 1484552582984
33. 1484552586437
34. 1484552586609
35. 1484552592671
36. 1484552592968
37. 1484552602890
38. 1484552614140
39. 1484552626281
40. 1484552627796
41. 1484552638796
42. 1484552639218
43. 1484552651421
44. 1484552654281
45. 1484552663343
46. 1484552664984
47. 1484552677125
48. 1484552679812
49. 1484552691984
50. 1484552695250
51. 1484552707484
52. 1484552707796
53. 1484552719953
54. 1484552720140
55. 1484552722546
56. 1484552726156
57. 1484552738406
58. 1484552739484
59. 1484552743671
60. 1484552743843
61. 1484552744593
62. 1484552744750
63. 1484552756890
64. 1484552760234
65. 1484552772437
66. 1484552773953
67. 1484552786078
68. 1484552786250
69. 1484552798375
70. 1484552810531
71. 1484552810734
72. 1484552810906
73. 1484552815656
