* 7:12pm Jan 15  2017
* a55 vs a1
* 1 2 2 2 2 2 5 1 2 2 2 2 2 5
* X X X X
* X X X X
* X X X X
* X X X X
* X X X X
* X X X X
* X X X X
* X X X X
* first 0
* time 900
* 1. b1(M) a4(p)
* 2. b3(m) c5(R)
* 3. c8(p) b7(R)
* 4. c7(G) b6(P)
* 5. c7-c8 d7(G)
* 6. b8(K) d4(p)
* 7. a1(P) c4(n)
* 8. c5-c4 b4(P)
* 9. c2(r) b3-b4
* 10. d8(k) b4-c4
* 11. a3(m) d8-d7
* 12. a6(c) a3-b3
* 13. c1(g) c1-b1
* 14. d2(c) b1-a1
* 15. a8(N) a1-b1
* 16. d6(p) b1-c1
* 17. b5(C) c1-b1
* 18. d5(N) b1-c1
* 19. c6(r) c1-b1
* 20. d1(n) b1-c1
* 21. a5(p) c1-b1
* 22. a2(g) b1-c1
* 23. d3(M) c3(P)
* 24. d3-d2 c2-c3
* 25. d2-d1 c1-d1
* 26. b2(P) b3-b2
* 27. a7(C) c4-b4
* 28. b5-b2 a6-a8
* 29. b2-c2 c3-c2
* 30. d5-d4 b4-c4
* 31. d4-d3 d1-d2
* 32. a7-d7 d2-d3
* 33. b8-a8 a2-b2
* 34. b6-b5 c2-d2
* 35. b5-c5 b2-c2
* 36. d7-d8 c2-c1
* 37. c5-d5 d6-d5
* 38. a8-a7 c1-d1
* 39. a7-a6 a5-a6
* 40. d8-d3 d1-c1
* 41. d3-c3 c4-c3
* 42. b7-c7 c6-d6
* 43. c7-b7 c1-d1
* 44. b7-c7 d1-c1
* 45. c7-d7 d6-d7
* 46. c8-d8 d7-d6
* 47. d8-d7 c1-d1
* 48. d7-d6 d5-d4
* 49. d6-d5 d4-c4
* 50. d5-d4 d1-c1
* 51. d4-d3 c1-c2
* 52. d3-d2 c2-d2
* a1 wins
* Comment 0 0
0. 1484478723813
1. 1484478724047
2. 1484478724235
3. 1484478724406
4. 1484478724594
5. 1484478724797
6. 1484478724969
7. 1484478725203
8. 1484478725422
9. 1484478725610
10. 1484478725797
11. 1484478726078
12. 1484478726266
13. 1484478726469
14. 1484478726672
15. 1484478726875
16. 1484478727063
17. 1484478727250
18. 1484478727453
19. 1484478727656
20. 1484478727985
21. 1484478728203
22. 1484478728438
23. 1484478728610
24. 1484478728860
25. 1484478729078
26. 1484478729297
27. 1484478729485
28. 1484478729672
29. 1484478729860
30. 1484478730141
31. 1484478730328
32. 1484478730547
33. 1484478730735
34. 1484478730906
35. 1484478731110
36. 1484478731250
37. 1484478731563
38. 1484478731766
39. 1484478732094
40. 1484478732266
41. 1484478732563
42. 1484478732735
43. 1484478733172
44. 1484478733375
45. 1484478733906
46. 1484478734235
47. 1484478735281
48. 1484478735485
49. 1484478736250
50. 1484478736469
51. 1484478737438
52. 1484478737656
53. 1484478740625
54. 1484478741422
55. 1484478745719
56. 1484478746500
57. 1484478753813
58. 1484478754578
59. 1484478758438
60. 1484478758750
61. 1484478763110
62. 1484478763656
63. 1484478766985
64. 1484478768235
65. 1484478771625
66. 1484478771875
67. 1484478776172
68. 1484478776391
69. 1484478779672
70. 1484478780063
71. 1484478782344
72. 1484478782547
73. 1484478784828
74. 1484478785047
75. 1484478786860
76. 1484478787031
77. 1484478788453
78. 1484478788766
79. 1484478789953
80. 1484478790235
81. 1484478792313
82. 1484478792500
83. 1484478793250
84. 1484478793438
85. 1484478794063
86. 1484478794266
87. 1484478794672
88. 1484478794844
89. 1484478795360
90. 1484478795563
91. 1484478795860
92. 1484478796047
93. 1484478796250
94. 1484478796422
95. 1484478796625
96. 1484478796813
97. 1484478796985
98. 1484478797219
99. 1484478797422
100. 1484478797610
101. 1484478797797
102. 1484478797969
103. 1484478798172
